"Time (s)","Linear Acceleration x (m/s^2)","Linear Acceleration y (m/s^2)","Linear Acceleration z (m/s^2)","Absolute acceleration (m/s^2)"
9.697435100E-2,1.230000034E-1,1.010000035E-1,2.099999972E-2,1.605334904E-1
1.019553530E-1,1.270000041E-1,1.049999967E-1,2.300000004E-2,1.663820914E-1
1.069362760E-1,1.309999973E-1,1.089999974E-1,2.600000054E-2,1.723890911E-1
1.119174280E-1,1.449999958E-1,1.230000034E-1,3.200000152E-2,1.928159737E-1
1.168984300E-1,1.620000005E-1,1.389999986E-1,3.700000048E-2,2.166425623E-1
1.218796060E-1,1.509999931E-1,1.299999952E-1,3.599999845E-2,2.024771507E-1
1.268606080E-1,1.379999965E-1,1.199999973E-1,3.299999982E-2,1.858305637E-1
1.318415310E-1,1.070000008E-1,9.499999881E-2,2.600000054E-2,1.454303956E-1
1.368226630E-1,7.599999756E-2,6.899999827E-2,1.799999923E-2,1.042161185E-1
1.418036650E-1,5.900000036E-2,5.400000140E-2,1.300000027E-2,8.103085956E-2
1.467848130E-1,3.400000185E-2,3.200000152E-2,7.000000216E-3,4.721228893E-2
1.517658150E-1,-9.999999776E-3,-8.999999613E-3,-2.000000095E-3,1.360147010E-2
1.567469670E-1,-4.699999839E-2,-4.600000009E-2,-1.099999994E-2,6.667833123E-2
1.617279970E-1,-7.999999821E-2,-8.100000024E-2,-2.099999972E-2,1.157670063E-1
1.667091490E-1,-9.499999881E-2,-9.899999946E-2,-2.700000070E-2,1.398391923E-1
1.716900740E-1,-1.080000028E-1,-1.140000001E-1,-3.200000152E-2,1.602622873E-1
1.766710960E-1,-7.900000364E-2,-1.199999973E-1,-6.000000052E-3,1.437949927E-1
1.816522490E-1,1.400000043E-2,-1.599999964E-1,6.000000052E-3,1.607233613E-1
1.866332380E-1,1.759999990E-1,-1.969999969E-1,-1.999999955E-2,2.649245146E-1
1.916143890E-1,3.709999919E-1,-2.300000042E-1,-1.379999965E-1,4.578045379E-1
1.965953910E-1,5.479999781E-1,-2.389999926E-1,-2.790000141E-1,6.597469062E-1
2.015763090E-1,7.139999866E-1,-2.409999967E-1,-3.860000074E-1,8.466835212E-1
2.065574610E-1,8.880000114E-1,-2.840000093E-1,-4.449999928E-1,1.033065835E0
2.115384490E-1,1.057000041E0,-3.650000095E-1,-5.080000162E-1,1.228225594E0
2.165196010E-1,1.228000045E0,-4.810000062E-1,-5.609999895E-1,1.433201348E0
2.215006030E-1,1.322000027E0,-5.600000024E-1,-5.860000253E-1,1.550703100E0
2.264817450E-1,1.276999950E0,-5.040000081E-1,-6.150000095E-1,1.504317085E0
2.314627470E-1,1.121999979E0,-4.000000060E-1,-5.989999771E-1,1.333298515E0
2.364438990E-1,9.079999924E-1,-2.360000014E-1,-5.580000281E-1,1.091569521E0
2.414248820E-1,6.740000248E-1,-9.200000018E-2,-4.589999914E-1,8.206223404E-1
2.464058050E-1,4.740000069E-1,9.600000083E-2,-2.860000134E-1,5.618612056E-1
2.513869570E-1,2.960000038E-1,2.619999945E-1,-6.700000167E-2,4.009351564E-1
2.563679300E-1,1.209999993E-1,4.379999936E-1,1.589999944E-1,4.814208060E-1
2.613490820E-1,-1.999999955E-2,5.669999719E-1,4.009999931E-1,6.947589240E-1
2.663301120E-1,-1.720000058E-1,7.009999752E-1,6.090000272E-1,9.443865736E-1
2.713112640E-1,-2.910000086E-1,8.379999995E-1,7.599999905E-1,1.168128841E0
2.762921890E-1,-4.040000141E-1,9.829999804E-1,8.420000076E-1,1.355901540E0
2.812731780E-1,-4.480000138E-1,1.085999966E0,8.719999790E-1,1.463039269E0
2.862543320E-1,-4.149999917E-1,1.115000010E0,8.780000210E-1,1.478625731E0
2.912353340E-1,-3.319999874E-1,1.085999966E0,8.220000267E-1,1.401892992E0
2.962164990E-1,-1.930000037E-1,1.036999941E0,7.260000110E-1,1.280505328E0
3.011975010E-1,-4.899999872E-2,9.459999800E-1,5.889999866E-1,1.115454144E0
3.061786730E-1,1.350000054E-1,8.460000157E-1,4.480000138E-1,9.667704177E-1
3.111595980E-1,3.129999936E-1,7.419999838E-1,2.569999993E-1,8.453295047E-1
3.161408270E-1,5.070000291E-1,6.349999905E-1,7.100000232E-2,8.156684484E-1
3.211217430E-1,6.499999762E-1,5.820000172E-1,-9.499999881E-2,8.776383018E-1
3.261027430E-1,7.440000176E-1,5.550000072E-1,-2.469999939E-1,9.605050917E-1
3.310838950E-1,7.670000196E-1,5.310000181E-1,-3.429999948E-1,9.939311071E-1
3.360648970E-1,7.689999938E-1,4.950000048E-1,-3.569999933E-1,9.817509819E-1
3.410460490E-1,6.940000057E-1,4.720000029E-1,-3.030000031E-1,8.923166548E-1
3.460270650E-1,5.400000215E-1,4.850000143E-1,-1.879999936E-1,7.497793240E-1
3.510082170E-1,3.260000050E-1,5.130000114E-1,-7.400000095E-2,6.123079414E-1
3.559891420E-1,1.330000013E-1,5.460000038E-1,1.099999994E-2,5.620729530E-1
3.609701160E-1,1.300000027E-2,5.720000267E-1,5.799999833E-2,5.750800208E-1
3.659512700E-1,-3.999999911E-2,5.860000253E-1,1.250000000E-1,6.005173016E-1
3.709322720E-1,-5.600000173E-2,6.190000176E-1,1.550000012E-1,6.405638316E-1
3.759134240E-1,-8.000000380E-3,6.119999886E-1,1.570000052E-1,6.318678562E-1
3.808944260E-1,2.500000037E-2,5.690000057E-1,1.700000018E-1,5.943786732E-1
3.858753580E-1,5.999999866E-2,5.849999785E-1,1.389999986E-1,6.042730958E-1
3.908565870E-1,1.080000028E-1,6.140000224E-1,1.089999974E-1,6.328831073E-1
3.958377210E-1,1.710000038E-1,6.690000296E-1,9.200000018E-2,6.966103939E-1
4.008186470E-1,3.569999933E-1,6.560000181E-1,1.539999992E-1,7.625621409E-1
4.057996330E-1,5.920000076E-1,6.209999919E-1,2.249999940E-1,8.869780134E-1
4.107807840E-1,8.859999776E-1,5.600000024E-1,2.730000019E-1,1.083108935E0
4.157617950E-1,1.245000005E0,4.930000007E-1,2.569999993E-1,1.363496612E0
4.207429470E-1,1.666000009E0,4.620000124E-1,2.349999994E-1,1.744770770E0
4.257239830E-1,2.174000025E0,4.429999888E-1,2.220000029E-1,2.229755390E0
4.307051350E-1,2.757999897E0,4.460000098E-1,2.450000048E-1,2.804550667E0
4.356861370E-1,3.384999990E0,4.169999957E-1,3.449999988E-1,3.427993426E0
4.406673320E-1,4.071000099E0,2.700000107E-1,5.149999857E-1,4.112318908E0
4.456483340E-1,4.750999928E0,1.260000020E-1,6.399999857E-1,4.795568402E0
4.506292570E-1,5.464000225E0,-5.099999905E-2,8.109999895E-1,5.524094536E0
4.556104240E-1,6.210999966E0,-2.000000030E-1,8.949999809E-1,6.278339394E0
4.605914260E-1,6.948999882E0,-3.440000117E-1,8.970000148E-1,7.015094040E0
4.655725820E-1,7.703000069E0,-5.299999714E-1,8.949999809E-1,7.772910330E0
4.705535840E-1,8.475000381E0,-7.910000086E-1,8.870000243E-1,8.557925071E0
4.755347320E-1,9.244999886E0,-1.098000050E0,8.349999785E-1,9.347344647E0
4.805157340E-1,9.923999786E0,-1.419000030E0,8.410000205E-1,1.006014979E1
4.854966570E-1,1.043400002E1,-1.700999975E0,8.700000048E-1,1.060748119E1
4.904778090E-1,1.075599957E1,-1.970000029E0,9.120000005E-1,1.097288343E1
4.954588110E-1,1.091399956E1,-2.188999891E0,1.024000049E0,1.117835779E1
5.004399470E-1,1.087600040E1,-2.407000065E0,1.251999974E0,1.120930587E1
5.054209490E-1,1.071300030E1,-2.579999924E0,1.457999945E0,1.111532900E1
5.104021000E-1,1.047700024E1,-2.724999905E0,1.621999979E0,1.094641687E1
5.153831310E-1,1.022500038E1,-2.865000010E0,1.792999983E0,1.076910891E1
5.203642830E-1,9.876000404E0,-2.997999907E0,1.986999989E0,1.051054501E1
5.253452900E-1,9.517000198E0,-3.180999994E0,2.174999952E0,1.026755465E1
5.303264420E-1,9.173000336E0,-3.361000061E0,2.349999905E0,1.004802250E1
5.353074440E-1,8.881999969E0,-3.553999901E0,2.515000105E0,9.891716953E0
5.402885570E-1,8.579999924E0,-3.634000063E0,2.618000031E0,9.678650697E0
5.452695590E-1,8.390000343E0,-3.744999886E0,2.720000029E0,9.582042061E0
5.502507110E-1,8.314999580E0,-3.947999954E0,2.848000050E0,9.635197245E0
5.552317130E-1,8.420999527E0,-4.177999973E0,2.957000017E0,9.854580961E0
5.602126360E-1,8.501000404E0,-4.399000168E0,3.029999971E0,1.003987600E1
5.651937790E-1,8.664999962E0,-4.668000221E0,3.062000036E0,1.030768134E1
5.701747810E-1,8.826000214E0,-4.965000153E0,3.035000086E0,1.057169484E1
5.751559330E-1,8.940999985E0,-5.290999889E0,3.023999929E0,1.082038521E1
5.801369200E-1,8.859999657E0,-5.512000084E0,3.039000034E0,1.086817648E1
5.851180720E-1,8.670999527E0,-5.684999943E0,2.986999989E0,1.079016339E1
5.900990930E-1,8.491000175E0,-5.903999805E0,3.076999903E0,1.078991316E1
5.950802440E-1,8.428999901E0,-6.222000122E0,3.167999983E0,1.094520666E1
6.000611700E-1,8.197999954E0,-6.511000156E0,3.331000090E0,1.098616803E1
6.050421730E-1,7.932000160E0,-6.848999977E0,3.492000103E0,1.104624334E1
6.100233260E-1,7.618999958E0,-7.291999817E0,3.760999918E0,1.119676480E1
6.150043280E-1,7.258999825E0,-7.756000042E0,4.000000000E0,1.135115039E1
6.199854370E-1,6.576000214E0,-8.064000130E0,4.175000191E0,1.121171278E1
6.249664390E-1,5.837999821E0,-8.286000252E0,4.322000027E0,1.101906195E1
6.299475910E-1,5.120999813E0,-8.444999695E0,4.570000172E0,1.088244276E1
6.349286020E-1,4.531000137E0,-8.526000023E0,4.685999870E0,1.073225202E1
6.399097540E-1,4.193999767E0,-8.717000008E0,4.833000183E0,1.081358469E1
6.448907280E-1,3.898999929E0,-8.949999809E0,4.905000210E0,1.092537066E1
6.498716510E-1,3.657000065E0,-9.116999626E0,4.988999844E0,1.101741581E1
6.548528030E-1,3.418999910E0,-9.248999596E0,5.081999779E0,1.109325361E1
6.598338140E-1,3.210999966E0,-9.326000214E0,5.092000008E0,1.110014706E1
6.648149660E-1,3.028000116E0,-9.399999619E0,5.006000042E0,1.107198329E1
6.697959680E-1,2.891000032E0,-9.510999680E0,4.908999920E0,1.108671621E1
6.747771010E-1,2.709000111E0,-9.659999847E0,4.823999882E0,1.113217200E1
6.797581030E-1,2.480999947E0,-9.788999557E0,4.793000221E0,1.117822545E1
6.847392600E-1,2.384999990E0,-9.817000389E0,4.785999775E0,1.117888704E1
6.897202620E-1,2.444000006E0,-9.824999809E0,4.802000046E0,1.120548802E1
6.947011850E-1,2.641999960E0,-9.859000206E0,4.780000210E0,1.127068990E1
6.996823900E-1,2.917000055E0,-9.930999756E0,4.821000099E0,1.141821735E1
7.046633150E-1,3.134000063E0,-1.005399990E1,4.993000031E0,1.165482388E1
7.096444660E-1,3.194000006E0,-1.016199970E1,5.261000156E0,1.188048806E1
7.146254880E-1,3.085999966E0,-1.022200012E1,5.535999775E0,1.202746756E1
7.196066400E-1,2.976000071E0,-1.022099972E1,5.736999989E0,1.209291448E1
7.245876270E-1,2.874000072E0,-1.022799969E1,5.823999882E0,1.211572650E1
7.295687790E-1,2.803999901E0,-1.026700020E1,5.836999893E0,1.213854506E1
7.345497810E-1,2.711999893E0,-1.037699986E1,5.870999813E0,1.222725268E1
7.395309280E-1,2.494999886E0,-1.052999973E1,5.907000065E0,1.232876995E1
7.445119300E-1,2.174000025E0,-1.066499996E1,5.890999794E0,1.237628292E1
7.494930820E-1,1.820000052E0,-1.072900009E1,5.912000179E0,1.238448987E1
7.544741180E-1,1.523000002E0,-1.065799999E1,6.006000042E0,1.232820057E1
7.594552700E-1,1.314000010E0,-1.050199986E1,6.092999935E0,1.221242176E1
7.644363010E-1,1.136000037E0,-1.033899975E1,6.125000000E0,1.207066845E1
7.694174530E-1,9.610000253E-1,-1.027600002E1,6.147999763E0,1.201322599E1
7.743984600E-1,7.409999967E-1,-1.024300003E1,6.164999962E0,1.197811985E1
7.793793830E-1,4.160000086E-1,-1.019999981E1,6.138999939E0,1.191219427E1
7.843605630E-1,-8.900000155E-2,-1.005799961E1,6.080999851E0,1.175371585E1
7.893417930E-1,-7.319999933E-1,-9.885999680E0,6.025000095E0,1.160040688E1
7.943227180E-1,-1.496000051E0,-9.706999779E0,6.020999908E0,1.152025611E1
7.993037290E-1,-2.507999897E0,-9.489000320E0,6.048999786E0,1.152916254E1
8.042848800E-1,-3.740999937E0,-9.241000175E0,6.070000172E0,1.167202068E1
8.092658820E-1,-5.030000210E0,-8.977999687E0,6.011000156E0,1.191794879E1
8.142470340E-1,-6.251999855E0,-8.715999603E0,5.881999969E0,1.223331823E1
8.192280360E-1,-7.350999832E0,-8.508000374E0,5.644999981E0,1.258130731E1
8.242092310E-1,-8.210000038E0,-8.380000114E0,5.335999966E0,1.288803314E1
8.291902330E-1,-8.510999680E0,-8.343000412E0,4.889999866E0,1.288234723E1
8.341713850E-1,-8.151000023E0,-8.480999947E0,4.447000027E0,1.257545111E1
8.391523630E-1,-7.491000175E0,-8.748999596E0,4.087999821E0,1.222177647E1
8.441335150E-1,-6.920000076E0,-9.010000229E0,3.726999998E0,1.195646412E1
8.491145170E-1,-6.581999779E0,-9.123000145E0,3.448999882E0,1.176636957E1
8.540956690E-1,-6.572999954E0,-9.038000107E0,3.244999886E0,1.163700127E1
8.590765940E-1,-6.908999920E0,-8.772999763E0,3.096999884E0,1.158840856E1
8.640578280E-1,-7.651999950E0,-8.310999870E0,3.062999964E0,1.170503272E1
8.690387530E-1,-8.939000130E0,-7.788000107E0,3.292000055E0,1.230430548E1
8.740197530E-1,-1.060200024E1,-7.361000061E0,3.749000072E0,1.344030254E1
8.790009190E-1,-1.239500046E1,-7.114999771E0,4.282999992E0,1.491989769E1
8.839819210E-1,-1.420899963E1,-6.973000050E0,4.676000118E0,1.650404124E1
8.889630720E-1,-1.592599964E1,-6.846000195E0,4.894000053E0,1.801267386E1
8.939440980E-1,-1.752099991E1,-6.748000145E0,4.802999973E0,1.938013809E1
8.989252500E-1,-1.894599915E1,-6.650000095E0,4.587999821E0,2.059667758E1
9.039062720E-1,-2.024500084E1,-6.451000214E0,4.071000099E0,2.163442869E1
9.088874240E-1,-2.134199905E1,-6.354000092E0,3.171000004E0,2.249243166E1
9.138684260E-1,-2.221299934E1,-6.354000092E0,2.207000017E0,2.320908241E1
9.188495780E-1,-2.281699944E1,-6.372000217E0,1.332000017E0,2.372745402E1
9.238305800E-1,-2.311800003E1,-6.414000034E0,6.370000243E-1,2.399973106E1
9.288117320E-1,-2.322800064E1,-6.489999771E0,8.000000380E-3,2.411763203E1
9.337927140E-1,-2.324500084E1,-6.613999844E0,-6.380000114E-1,2.417606465E1
9.387738660E-1,-2.328100014E1,-6.778999805E0,-1.276999950E0,2.428148543E1
9.437548680E-1,-2.332799911E1,-7.025000095E0,-1.902999997E0,2.443701246E1
9.487357910E-1,-2.331299973E1,-7.284999847E0,-2.467999935E0,2.454909780E1
9.537170200E-1,-2.328199959E1,-7.513000011E0,-2.976000071E0,2.464453794E1
9.586979360E-1,-2.324300003E1,-7.671000004E0,-3.549000025E0,2.473209843E1
9.636790880E-1,-2.315800095E1,-7.796000004E0,-4.138999939E0,2.478309796E1
9.686600900E-1,-2.304000092E1,-7.959000111E0,-4.769000053E0,2.483808943E1
9.736412360E-1,-2.276700020E1,-8.154000282E0,-5.436999798E0,2.478679054E1
9.786222380E-1,-2.239399910E1,-8.354999542E0,-6.086999893E0,2.466472746E1
9.836033950E-1,-2.201199913E1,-8.548000336E0,-6.571000099E0,2.451070088E1
9.885843970E-1,-2.162199974E1,-8.659000397E0,-6.868999958E0,2.428316950E1
9.935655490E-1,-2.114500046E1,-8.717000008E0,-7.073999882E0,2.394031344E1
9.985465410E-1,-2.062299919E1,-8.774000168E0,-7.130000114E0,2.351867505E1
1.003527693E0,-2.012700081E1,-8.897999763E0,-6.868999958E0,2.305328007E1
1.008508594E0,-1.971599960E1,-9.029999733E0,-6.574999809E0,2.266036536E1
1.013489823E0,-1.940299988E1,-9.161000252E0,-6.248000145E0,2.234810586E1
1.018470748E0,-1.913500023E1,-9.326999664E0,-5.794000149E0,2.206154107E1
1.023451767E0,-1.886899948E1,-9.470000267E0,-5.081999779E0,2.171512764E1
1.028432919E0,-1.866799927E1,-9.564999580E0,-4.287000179E0,2.140938542E1
1.033413907E0,-1.844899940E1,-9.635999680E0,-3.602999926E0,2.112343905E1
1.038395059E0,-1.817200089E1,-9.741000175E0,-2.950999975E0,2.082827649E1
1.043376070E0,-1.785099983E1,-9.876999855E0,-2.207999945E0,2.052044310E1
1.048357222E0,-1.737800026E1,-1.010999966E1,-1.389999986E0,2.015289275E1
1.053338224E0,-1.681900024E1,-1.040200043E1,-5.910000205E-1,1.978458145E1
1.058319376E0,-1.616900063E1,-1.075699997E1,2.090000063E-1,1.942146520E1
1.063300378E0,-1.537100029E1,-1.111299992E1,9.509999752E-1,1.899133534E1
1.068281529E0,-1.451500034E1,-1.144699955E1,1.600000024E0,1.855475771E1
1.073262536E0,-1.355000019E1,-1.173200035E1,2.226999998E0,1.806105939E1
1.078243688E0,-1.244200039E1,-1.198799992E1,2.914999962E0,1.752177903E1
1.083224680E0,-1.127799988E1,-1.222999954E1,3.608000040E0,1.702303834E1
1.088205832E0,-1.016600037E1,-1.246399975E1,4.298999786E0,1.664873125E1
1.093186834E0,-9.156999588E0,-1.263099957E1,5.046999931E0,1.639710340E1
1.098167977E0,-8.435999870E0,-1.267000008E1,5.862999916E0,1.631164504E1
1.103148979E0,-8.012000084E0,-1.265200043E1,6.808000088E0,1.645035335E1
1.108130131E0,-7.853000164E0,-1.259899998E1,7.920000076E0,1.682649141E1
1.113111113E0,-7.761000156E0,-1.259700012E1,9.121000290E0,1.738131703E1
1.118092265E0,-7.469999790E0,-1.270199966E1,1.030099964E1,1.797921817E1
1.123073267E0,-6.929999828E0,-1.298900032E1,1.130799961E1,1.856367103E1
1.128054419E0,-6.245999813E0,-1.340499973E1,1.213700008E1,1.913147413E1
1.133035421E0,-5.526000023E0,-1.384500027E1,1.274800014E1,1.961459192E1
1.138016592E0,-4.903999805E0,-1.423400021E1,1.319799995E1,2.002106837E1
1.142997594E0,-4.469999790E0,-1.449300003E1,1.340299988E1,2.024026565E1
1.147978746E0,-4.214000225E0,-1.455799961E1,1.328400040E1,2.015335746E1
1.152959748E0,-4.163000107E0,-1.447700024E1,1.277600002E1,1.975196907E1
1.157940900E0,-4.335000038E0,-1.431200027E1,1.218299961E1,1.928862506E1
1.162921815E0,-4.612999916E0,-1.416199970E1,1.180900002E1,1.900774803E1
1.167902813E0,-5.002999783E0,-1.405799961E1,1.176299953E1,1.900067151E1
1.172884044E0,-5.543000221E0,-1.388500023E1,1.180500031E1,1.904930747E1
1.177864954E0,-6.103000164E0,-1.375800037E1,1.165999985E1,1.903903311E1
1.182846106E0,-6.481999874E0,-1.385900021E1,1.148799992E1,1.913275597E1
1.187827108E0,-6.552000046E0,-1.413300037E1,1.132999992E1,1.926238050E1
1.192808256E0,-6.342999935E0,-1.449600029E1,1.112600040E1,1.934310103E1
1.197789258E0,-6.085000038E0,-1.487600040E1,1.094699955E1,1.944632131E1
1.202770414E0,-6.015999794E0,-1.514900017E1,1.083800030E1,1.957413370E1
1.207751416E0,-6.124000072E0,-1.516300011E1,1.074499989E1,1.956719121E1
1.212732568E0,-6.205999851E0,-1.513099957E1,1.065400028E1,1.951843498E1
1.217713561E0,-6.166999817E0,-1.518000031E1,1.075800037E1,1.960099151E1
1.222694713E0,-6.094999790E0,-1.523299980E1,1.104599953E1,1.977896385E1
1.227675715E0,-5.914999962E0,-1.526799965E1,1.139400005E1,1.994798925E1
1.232656846E0,-5.393000126E0,-1.558199978E1,1.175500011E1,2.025001716E1
1.237637848E0,-4.754000187E0,-1.600000000E1,1.182600021E1,2.045616775E1
1.242619015E0,-4.050000191E0,-1.638899994E1,1.179899979E1,2.059655837E1
1.247600017E0,-3.621999979E0,-1.651000023E1,1.178699970E1,2.060660946E1
1.252581169E0,-2.874000072E0,-1.656699944E1,1.165799999E1,2.046055499E1
1.257562176E0,-2.016000032E0,-1.653899956E1,1.141699982E1,2.019778818E1
1.262543328E0,-1.190999985E0,-1.650099945E1,1.119400024E1,1.997516221E1
1.267524330E0,-4.250000119E-1,-1.637599945E1,1.111200047E1,1.979470983E1
1.272505491E0,3.240000010E-1,-1.603700066E1,1.114599991E1,1.953263116E1
1.277486493E0,1.139999986E0,-1.559000015E1,1.125300026E1,1.926078190E1
1.282467645E0,2.124000072E0,-1.525500011E1,1.133699989E1,1.912469533E1
1.287448647E0,3.170000076E0,-1.503499985E1,1.127400017E1,1.905789077E1
1.292429799E0,3.898000002E0,-1.465699959E1,1.084599972E1,1.864558261E1
1.297410792E0,4.232999802E0,-1.419299984E1,1.030599976E1,1.804364605E1
1.302391943E0,4.302000046E0,-1.384700012E1,1.030599976E1,1.778932960E1
1.307372945E0,4.181000233E0,-1.341199970E1,1.014400005E1,1.732810538E1
1.312354092E0,4.014999866E0,-1.292000008E1,9.949000359E0,1.679372603E1
1.317335094E0,3.888000011E0,-1.253999996E1,9.829000473E0,1.640053028E1
1.322316241E0,3.888999939E0,-1.228800011E1,9.657999992E0,1.610578253E1
1.327297243E0,4.354000092E0,-1.235599995E1,9.347000122E0,1.609330490E1
1.332278166E0,5.237999916E0,-1.284200001E1,8.932000160E0,1.649649157E1
1.337259375E0,6.158999920E0,-1.326099968E1,8.378000259E0,1.685165514E1
1.342240300E0,6.973999977E0,-1.330900002E1,7.623000145E0,1.684862868E1
1.347221529E0,7.708000183E0,-1.307600021E1,7.008999825E0,1.671888534E1
1.352202458E0,8.529000282E0,-1.282400036E1,6.460999966E0,1.670159728E1
1.357183610E0,9.312999725E0,-1.262899971E1,5.968999863E0,1.678846500E1
1.362164617E0,9.914999962E0,-1.240200043E1,5.692999840E0,1.686793070E1
1.367145769E0,1.026799965E1,-1.196500015E1,5.724999905E0,1.677404749E1
1.372126771E0,1.047399998E1,-1.136200047E1,6.037000179E0,1.659051239E1
1.377107947E0,1.058199978E1,-1.086999989E1,6.418000221E0,1.647198663E1
1.382088949E0,1.065600014E1,-1.058500004E1,6.885000229E0,1.652258433E1
1.387070101E0,1.065900040E1,-1.052600002E1,7.519999981E0,1.676190221E1
1.392051108E0,1.083399963E1,-1.065900040E1,7.830999851E0,1.709720434E1
1.397032259E0,1.129899979E1,-1.085099983E1,7.510000229E0,1.737272854E1
1.402013275E0,1.214200020E1,-1.130200005E1,6.989999771E0,1.800065195E1
1.406994427E0,1.313199997E1,-1.189599991E1,6.201000214E0,1.877276327E1
1.411975429E0,1.412199974E1,-1.234200001E1,5.019999981E0,1.941536095E1
1.416956548E0,1.511800003E1,-1.267899990E1,3.861999989E0,2.010537260E1
1.421937550E0,1.612700081E1,-1.303999996E1,2.697000027E0,2.091400400E1
1.426918702E0,1.710899925E1,-1.335700035E1,1.605999947E0,2.176480070E1
1.431899723E0,1.802000046E1,-1.359399986E1,6.209999919E-1,2.258102942E1
1.436880875E0,1.895100021E1,-1.378800011E1,-2.020000070E-1,2.343694007E1
1.441861896E0,1.990900040E1,-1.401599979E1,-9.570000172E-1,2.436662463E1
